t, theta (rad)
0, 0.988136
0.01, 0.987124
0.02, 0.984092
0.03, 0.979046
0.04, 0.971992
0.05, 0.962942
0.06, 0.951909
0.07, 0.938908
0.08, 0.923958
0.09, 0.907082
0.1, 0.888306
0.11, 0.867658
0.12, 0.845171
0.13, 0.820881
0.14, 0.794828
0.15, 0.767057
0.16, 0.737616
0.17, 0.706558
0.18, 0.673939
0.19, 0.639821
0.2, 0.60427
0.21, 0.567356
0.22, 0.529155
0.23, 0.489745
0.24, 0.44921
0.25, 0.407638
0.26, 0.365121
0.27, 0.321755
0.28, 0.277638
0.29, 0.232873
0.3, 0.187565
0.31, 0.141821
0.32, 0.0957508
0.33, 0.049465
0.34, 0.00307538
0.35, -0.0433059
0.36, -0.0895665
0.37, -0.135595
0.38, -0.181281
0.39, -0.226514
0.4, -0.271189
0.41, -0.315201
0.42, -0.358447
0.43, -0.40083
0.44, -0.442254
0.45, -0.482629
0.46, -0.521866
0.47, -0.559884
0.48, -0.596604
0.49, -0.631952
0.5, -0.665858
0.51, -0.698257
0.52, -0.72909
0.53, -0.7583
0.54, -0.785836
0.55, -0.811651
0.56, -0.835701
0.57, -0.857948
0.58, -0.878356
0.59, -0.896895
0.6, -0.913536
0.61, -0.928255
0.62, -0.941032
0.63, -0.951849
0.64, -0.960691
0.65, -0.967546
0.66, -0.972405
0.67, -0.975263
0.68, -0.976117
0.69, -0.974966
0.7, -0.971811
0.71, -0.966659
0.72, -0.959517
0.73, -0.950396
0.74, -0.939308
0.75, -0.92627
0.76, -0.911303
0.77, -0.894427
0.78, -0.875671
0.79, -0.855062
0.8, -0.832633
0.81, -0.808423
0.82, -0.78247
0.83, -0.75482
0.84, -0.725521
0.85, -0.694627
0.86, -0.662194
0.87, -0.628284
0.88, -0.592964
0.89, -0.556303
0.9, -0.518378
0.91, -0.479266
0.92, -0.439051
0.93, -0.397822
0.94, -0.35567
0.95, -0.312689
0.96, -0.268978
0.97, -0.22464
0.98, -0.179777
0.99, -0.134498
1, -0.088909
1.01, -0.0431209
1.02, 0.00275579
1.03, 0.0486102
1.04, 0.0943314
1.05, 0.139809
1.06, 0.184934
1.07, 0.229599
1.08, 0.273697
1.09, 0.317127
1.1, 0.359787
1.11, 0.401581
1.12, 0.442415
1.13, 0.482198
1.14, 0.520846
1.15, 0.558277
1.16, 0.594413
1.17, 0.629182
1.18, 0.662514
1.19, 0.694347
1.2, 0.724621
1.21, 0.753279
1.22, 0.780273
1.23, 0.805555
1.24, 0.829083
1.25, 0.850819
1.26, 0.870728
1.27, 0.888779
1.28, 0.904945
1.29, 0.919202
1.3, 0.93153
1.31, 0.941912
1.32, 0.950333
1.33, 0.956781
1.34, 0.96125
1.35, 0.963732
1.36, 0.964226
1.37, 0.962731
1.38, 0.959251
1.39, 0.95379
1.4, 0.946356
1.41, 0.936962
1.42, 0.925621
1.43, 0.91235
1.44, 0.897169
1.45, 0.880102
1.46, 0.861175
1.47, 0.840419
1.48, 0.817867
1.49, 0.793557
1.5, 0.76753
1.51, 0.739832
1.52, 0.710511
1.53, 0.679623
1.54, 0.647223
1.55, 0.613376
1.56, 0.578147
1.57, 0.541608
1.58, 0.503834
1.59, 0.464905
1.6, 0.424904
1.61, 0.383919
1.62, 0.342042
1.63, 0.299368
1.64, 0.255994
1.65, 0.212023
1.66, 0.167557
1.67, 0.122703
1.68, 0.0775684
1.69, 0.0322615
1.7, -0.0131079
1.71, -0.0584302
1.72, -0.103596
1.73, -0.148496
1.74, -0.193022
1.75, -0.237069
1.76, -0.280533
1.77, -0.323312
1.78, -0.365308
1.79, -0.406425
1.8, -0.446571
1.81, -0.485659
1.82, -0.523604
1.83, -0.560326
1.84, -0.595749
1.85, -0.629802
1.86, -0.662419
1.87, -0.693535
1.88, -0.723095
1.89, -0.751043
1.9, -0.777329
1.91, -0.80191
1.92, -0.824743
1.93, -0.845791
1.94, -0.86502
1.95, -0.8824
1.96, -0.897906
1.97, -0.911513
1.98, -0.923203
1.99, -0.932959
2, -0.940767
2.01, -0.946617
2.02, -0.950501
2.03, -0.952414
2.04, -0.952355
2.05, -0.950323
2.06, -0.946324
2.07, -0.940362
2.08, -0.932447
2.09, -0.922591
2.1, -0.910809
2.11, -0.897119
2.12, -0.881543
2.13, -0.864104
2.14, -0.84483
2.15, -0.823753
2.16, -0.800908
2.17, -0.776333
2.18, -0.750071
2.19, -0.722168
2.2, -0.692675
2.21, -0.661646
2.22, -0.629141
2.23, -0.595224
2.24, -0.559961
2.25, -0.523425
2.26, -0.485691
2.27, -0.446841
2.28, -0.406959
2.29, -0.366133
2.3, -0.324454
2.31, -0.282018
2.32, -0.238923
2.33, -0.19527
2.34, -0.151162
2.35, -0.106706
2.36, -0.0620064
2.37, -0.0171724
2.38, 0.0276878
2.39, 0.0724657
2.4, 0.117053
2.41, 0.161343
2.42, 0.205229
2.43, 0.248606
2.44, 0.291374
2.45, 0.333432
2.46, 0.374683
2.47, 0.415035
2.48, 0.454398
2.49, 0.492685
2.5, 0.529814
2.51, 0.565708
2.52, 0.600292
2.53, 0.633498
2.54, 0.665259
2.55, 0.695516
2.56, 0.724212
2.57, 0.751295
2.58, 0.776717
2.59, 0.800434
2.6, 0.822406
2.61, 0.842597
2.62, 0.860974
2.63, 0.87751
2.64, 0.892179
2.65, 0.904959
2.66, 0.915831
2.67, 0.92478
2.68, 0.931793
2.69, 0.936861
2.7, 0.939978
2.71, 0.941139
2.72, 0.940343
2.73, 0.937593
2.74, 0.932893
2.75, 0.92625
2.76, 0.917674
2.77, 0.90718
2.78, 0.894782
2.79, 0.880501
2.8, 0.864359
2.81, 0.846381
2.82, 0.826597
2.83, 0.805039
2.84, 0.781744
2.85, 0.756752
2.86, 0.730107
2.87, 0.701857
2.88, 0.672055
2.89, 0.640755
2.9, 0.60802
2.91, 0.573914
2.92, 0.538506
2.93, 0.501868
2.94, 0.464079
2.95, 0.42522
2.96, 0.385376
2.97, 0.344636
2.98, 0.303092
2.99, 0.260841
3, 0.217979
3.01, 0.174609
3.02, 0.130834
3.03, 0.0867576
3.04, 0.0424868
3.05, -0.00187179
3.06, -0.0462107
3.07, -0.0904227
3.08, -0.134401
3.09, -0.17804
3.1, -0.221236
3.11, -0.263886
3.12, -0.30589
3.13, -0.347152
3.14, -0.387576
3.15, -0.427071
3.16, -0.465551
3.17, -0.502932
3.18, -0.539133
3.19, -0.57408
3.2, -0.6077
3.21, -0.639927
3.22, -0.670699
3.23, -0.699955
3.24, -0.727643
3.25, -0.753712
3.26, -0.778116
3.27, -0.800812
3.28, -0.821764
3.29, -0.840935
3.3, -0.858297
3.31, -0.873821
3.32, -0.887485
3.33, -0.899266
3.34, -0.909149
3.35, -0.91712
3.36, -0.923166
3.37, -0.92728
3.38, -0.929456
3.39, -0.929692
3.4, -0.927989
3.41, -0.924348
3.42, -0.918778
3.43, -0.911285
3.44, -0.901882
3.45, -0.890584
3.46, -0.877408
3.47, -0.862375
3.48, -0.84551
3.49, -0.826839
3.5, -0.806394
3.51, -0.784209
3.52, -0.760323
3.53, -0.734777
3.54, -0.707617
3.55, -0.678893
3.56, -0.64866
3.57, -0.616975
3.58, -0.5839
3.59, -0.549503
3.6, -0.513854
3.61, -0.477028
3.62, -0.439103
3.63, -0.400162
3.64, -0.360292
3.65, -0.319583
3.66, -0.278127
3.67, -0.236021
3.68, -0.193363
3.69, -0.150256
3.7, -0.1068
3.71, -0.0631019
3.72, -0.0192657
3.73, 0.024602
3.74, 0.0683953
3.75, 0.112008
3.76, 0.155336
3.77, 0.198274
3.78, 0.240722
3.79, 0.282577
3.8, 0.323744
3.81, 0.364127
3.82, 0.403635
3.83, 0.442178
3.84, 0.479673
3.85, 0.516039
3.86, 0.551198
3.87, 0.585078
3.88, 0.617609
3.89, 0.648729
3.9, 0.678375
3.91, 0.706493
3.92, 0.73303
3.93, 0.757939
3.94, 0.781176
3.95, 0.8027
3.96, 0.822477
3.97, 0.840474
3.98, 0.856661
3.99, 0.871014
4, 0.883511
4.01, 0.894132
4.02, 0.902864
4.03, 0.909692
4.04, 0.914607
4.05, 0.917603
4.06, 0.918676
4.07, 0.917825
4.08, 0.915052
4.09, 0.910362
4.1, 0.903762
4.11, 0.895263
4.12, 0.884878
4.13, 0.872623
4.14, 0.858519
4.15, 0.842588
4.16, 0.824856
4.17, 0.805353
4.18, 0.784112
4.19, 0.761168
4.2, 0.736563
4.21, 0.710341
4.22, 0.68255
4.23, 0.653241
4.24, 0.622472
4.25, 0.590303
4.26, 0.556797
4.27, 0.522025
4.28, 0.486057
4.29, 0.448971
4.3, 0.410848
4.31, 0.371771
4.32, 0.331829
4.33, 0.291112
4.34, 0.249714
4.35, 0.207732
4.36, 0.165266
4.37, 0.122416
4.38, 0.0792856
4.39, 0.0359779
4.4, -0.00740193
4.41, -0.0507491
4.42, -0.0939587
4.43, -0.136927
4.44, -0.179549
4.45, -0.221726
4.46, -0.263355
4.47, -0.304341
4.48, -0.344588
4.49, -0.384003
4.5, -0.422498
4.51, -0.459988
4.52, -0.496391
4.53, -0.531629
4.54, -0.565629
4.55, -0.598319
4.56, -0.629636
4.57, -0.659517
4.58, -0.687905
4.59, -0.714746
4.6, -0.739993
4.61, -0.763599
4.62, -0.785523
4.63, -0.805728
4.64, -0.824181
4.65, -0.840851
4.66, -0.855712
4.67, -0.86874
4.68, -0.879916
4.69, -0.889223
4.7, -0.896648
4.71, -0.902179
4.72, -0.905809
4.73, -0.907533
4.74, -0.90735
4.75, -0.90526
4.76, -0.901267
4.77, -0.895377
4.78, -0.887601
4.79, -0.87795
4.8, -0.86644
4.81, -0.853091
4.82, -0.837922
4.83, -0.82096
4.84, -0.802232
4.85, -0.781772
4.86, -0.759613
4.87, -0.735795
4.88, -0.710361
4.89, -0.683357
4.9, -0.654835
4.91, -0.624849
4.92, -0.593457
4.93, -0.560723
4.94, -0.526713
4.95, -0.491498
4.96, -0.455153
4.97, -0.417757
4.98, -0.379392
4.99, -0.340143
5, -0.300101
5.01, -0.259357
5.02, -0.218007
5.03, -0.176147
5.04, -0.133878
5.05, -0.0912999
5.06, -0.0485158
5.07, -0.00562904
5.08, 0.0372567
5.09, 0.0800378
5.1, 0.122611
5.11, 0.164873
5.12, 0.206724
5.13, 0.248064
5.14, 0.288796
5.15, 0.328825
5.16, 0.368058
5.17, 0.406408
5.18, 0.443788
5.19, 0.480116
5.2, 0.515314
5.21, 0.549308
5.22, 0.582026
5.23, 0.613403
5.24, 0.643377
5.25, 0.671888
5.26, 0.698883
5.27, 0.724312
5.28, 0.748129
5.29, 0.770292
5.3, 0.790761
5.31, 0.809503
5.32, 0.826487
5.33, 0.841685
5.34, 0.855073
5.35, 0.866629
5.36, 0.876338
5.37, 0.884183
5.38, 0.890154
5.39, 0.894242
5.4, 0.896441
5.41, 0.896749
5.42, 0.895166
5.43, 0.891695
5.44, 0.886342
5.45, 0.879116
5.46, 0.870028
5.47, 0.859094
5.48, 0.84633
5.49, 0.831759
5.5, 0.815403
5.51, 0.797292
5.52, 0.777455
5.53, 0.755927
5.54, 0.732746
5.55, 0.707955
5.56, 0.681598
5.57, 0.653726
5.58, 0.624392
5.59, 0.593652
5.6, 0.56157
5.61, 0.52821
5.62, 0.493642
5.63, 0.457939
5.64, 0.421178
5.65, 0.38344
5.66, 0.344811
5.67, 0.305376
5.68, 0.265227
5.69, 0.224458
5.7, 0.183164
5.71, 0.141444
5.72, 0.0993964
5.73, 0.0571232
5.74, 0.0147263
5.75, -0.0276917
5.76, -0.0700283
5.77, -0.112181
5.78, -0.154049
5.79, -0.195531
5.8, -0.236528
5.81, -0.276945
5.82, -0.316686
5.83, -0.35566
5.84, -0.393779
5.85, -0.430956
5.86, -0.467109
5.87, -0.50216
5.88, -0.536035
5.89, -0.568662
5.9, -0.599975
5.91, -0.62991
5.92, -0.65841
5.93, -0.68542
5.94, -0.710889
5.95, -0.734769
5.96, -0.757019
5.97, -0.7776
5.98, -0.796475
5.99, -0.813614
6, -0.828989
6.01, -0.842573
6.02, -0.854347
6.03, -0.864292
6.04, -0.872392
6.05, -0.878636
6.06, -0.883014
6.07, -0.885521
6.08, -0.886154
6.09, -0.884911
6.1, -0.881796
6.11, -0.876814
6.12, -0.869973
6.13, -0.861284
6.14, -0.850763
6.15, -0.838425
6.16, -0.824292
6.17, -0.808388
6.18, -0.790738
6.19, -0.771375
6.2, -0.75033
6.21, -0.727643
6.22, -0.703354
6.23, -0.677508
6.24, -0.650154
6.25, -0.621344
6.26, -0.591136
6.27, -0.559589
6.28, -0.526768
6.29, -0.492742
6.3, -0.457583
6.31, -0.421367
6.32, -0.384173
6.33, -0.346085
6.34, -0.30719
6.35, -0.267576
6.36, -0.227335
6.37, -0.186563
6.38, -0.145356
6.39, -0.103813
6.4, -0.0620335
6.41, -0.0201179
6.42, 0.021832
6.43, 0.0637148
6.44, 0.105429
6.45, 0.146875
6.46, 0.187952
6.47, 0.228563
6.48, 0.268612
6.49, 0.308005
6.5, 0.346652
6.51, 0.384462
6.52, 0.421353
6.53, 0.457241
6.54, 0.492048
6.55, 0.525701
6.56, 0.558127
6.57, 0.589261
6.58, 0.61904
6.59, 0.647404
6.6, 0.674299
6.61, 0.699673
6.62, 0.723481
6.63, 0.745678
6.64, 0.766226
6.65, 0.785089
6.66, 0.802234
6.67, 0.817634
6.68, 0.831263
6.69, 0.843099
6.7, 0.853124
6.71, 0.861323
6.72, 0.867682
6.73, 0.872193
6.74, 0.874849
6.75, 0.875647
6.76, 0.874586
6.77, 0.871669
6.78, 0.8669
6.79, 0.860287
6.8, 0.851842
6.81, 0.841579
6.82, 0.829515
6.83, 0.81567
6.84, 0.800067
6.85, 0.782733
6.86, 0.763699
6.87, 0.742997
6.88, 0.720665
6.89, 0.696744
6.9, 0.671278
6.91, 0.644315
6.92, 0.615908
6.93, 0.586113
6.94, 0.554989
6.95, 0.522601
6.96, 0.489016
6.97, 0.454306
6.98, 0.418546
6.99, 0.381814
7, 0.344193
7.01, 0.305769
7.02, 0.266629
7.03, 0.226866
7.04, 0.186571
7.05, 0.145841
7.06, 0.104774
7.07, 0.0634677
7.08, 0.0220219
7.09, -0.019463
7.1, -0.0608867
7.11, -0.102149
7.12, -0.14315
7.13, -0.183793
7.14, -0.223979
7.15, -0.263614
7.16, -0.302605
7.17, -0.340861
7.18, -0.378296
7.19, -0.414824
7.2, -0.450364
7.21, -0.484839
7.22, -0.518174
7.23, -0.5503
7.24, -0.581149
7.25, -0.610658
7.26, -0.638771
7.27, -0.66543
7.28, -0.690587
7.29, -0.714193
7.3, -0.736206
7.31, -0.756587
7.32, -0.775299
7.33, -0.792311
7.34, -0.807594
7.35, -0.821123
7.36, -0.832876
7.37, -0.842835
7.38, -0.850983
7.39, -0.857309
7.4, -0.861802
7.41, -0.864457
7.42, -0.86527
7.43, -0.864241
7.44, -0.861371
7.45, -0.856665
7.46, -0.850132
7.47, -0.841783
7.48, -0.831632
7.49, -0.819696
7.5, -0.805995
7.51, -0.790552
7.52, -0.773395
7.53, -0.754552
7.54, -0.734059
7.55, -0.711951
7.56, -0.68827
7.57, -0.663059
7.58, -0.636368
7.59, -0.608248
7.6, -0.578754
7.61, -0.547947
7.62, -0.51589
7.63, -0.48265
7.64, -0.448298
7.65, -0.412909
7.66, -0.376561
7.67, -0.339335
7.68, -0.301317
7.69, -0.262594
7.7, -0.223256
7.71, -0.183395
7.72, -0.143107
7.73, -0.102488
7.74, -0.0616343
7.75, -0.020646
7.76, 0.0203783
7.77, 0.0613393
7.78, 0.102138
7.79, 0.142676
7.8, 0.182856
7.81, 0.222583
7.82, 0.261761
7.83, 0.3003
7.84, 0.338111
7.85, 0.375105
7.86, 0.411201
7.87, 0.446317
7.88, 0.480376
7.89, 0.513306
7.9, 0.545036
7.91, 0.5755
7.92, 0.604637
7.93, 0.632389
7.94, 0.6587
7.95, 0.683521
7.96, 0.706806
7.97, 0.728511
7.98, 0.748597
7.99, 0.76703
8, 0.783776
8.01, 0.798808
8.02, 0.812101
8.03, 0.823633
8.04, 0.833386
8.05, 0.841344
8.06, 0.847495
8.07, 0.851829
8.08, 0.854341
8.09, 0.855026
8.1, 0.853886
8.11, 0.850921
8.12, 0.846137
8.13, 0.839543
8.14, 0.83115
8.15, 0.820972
8.16, 0.809026
8.17, 0.795333
8.18, 0.779917
8.19, 0.762804
8.2, 0.744024
8.21, 0.723612
8.22, 0.701605
8.23, 0.678043
8.24, 0.652971
8.25, 0.626437
8.26, 0.598494
8.27, 0.569197
8.28, 0.538606
8.29, 0.506784
8.3, 0.473798
8.31, 0.439719
8.32, 0.404622
8.33, 0.368584
8.34, 0.331687
8.35, 0.294014
8.36, 0.255653
8.37, 0.216693
8.38, 0.177226
8.39, 0.137346
8.4, 0.0971481
8.41, 0.0567294
8.42, 0.0161873
8.43, -0.0243801
8.44, -0.0648747
8.45, -0.105199
8.46, -0.145255
8.47, -0.184947
8.48, -0.22418
8.49, -0.262863
8.5, -0.300903
8.51, -0.338213
8.52, -0.374708
8.53, -0.410304
8.54, -0.444923
8.55, -0.478489
8.56, -0.510929
8.57, -0.542175
8.58, -0.572161
8.59, -0.600827
8.6, -0.628115
8.61, -0.653971
8.62, -0.678347
8.63, -0.701196
8.64, -0.722475
8.65, -0.742147
8.66, -0.760177
8.67, -0.776533
8.68, -0.791187
8.69, -0.804115
8.7, -0.815296
8.71, -0.824711
8.72, -0.832345
8.73, -0.838188
8.74, -0.842228
8.75, -0.844462
8.76, -0.844886
8.77, -0.843499
8.78, -0.840305
8.79, -0.83531
8.8, -0.828521
8.81, -0.819952
8.82, -0.809616
8.83, -0.797531
8.84, -0.783718
8.85, -0.768202
8.86, -0.751009
8.87, -0.732171
8.88, -0.711721
8.89, -0.689698
8.9, -0.666142
8.91, -0.641099
8.92, -0.614618
8.93, -0.586749
8.94, -0.557551
8.95, -0.527082
8.96, -0.495406
8.97, -0.46259
8.98, -0.428706
8.99, -0.393828
9, -0.358032
9.01, -0.321401
9.02, -0.284019
9.03, -0.24597
9.04, -0.207346
9.05, -0.168237
9.06, -0.128736
9.07, -0.0889373
9.08, -0.0489376
9.09, -0.00883325
9.1, 0.0312788
9.11, 0.0713015
9.12, 0.111138
9.13, 0.150693
9.14, 0.189871
9.15, 0.228579
9.16, 0.266725
9.17, 0.304221
9.18, 0.340978
9.19, 0.376915
9.2, 0.411948
9.21, 0.446
9.22, 0.478997
9.23, 0.510868
9.24, 0.541544
9.25, 0.570962
9.26, 0.599063
9.27, 0.625789
9.28, 0.651089
9.29, 0.674914
9.3, 0.697218
9.31, 0.717961
9.32, 0.737104
9.33, 0.754615
9.34, 0.770461
9.35, 0.784617
9.36, 0.797058
9.37, 0.807763
9.38, 0.816716
9.39, 0.823901
9.4, 0.829308
9.41, 0.832929
9.42, 0.834757
9.43, 0.834791
9.44, 0.833032
9.45, 0.829482
9.46, 0.824148
9.47, 0.81704
9.48, 0.808169
9.49, 0.797552
9.5, 0.785206
9.51, 0.771154
9.52, 0.755419
9.53, 0.738031
9.54, 0.71902
9.55, 0.698422
9.56, 0.676275
9.57, 0.652621
9.58, 0.627505
9.59, 0.600977
9.6, 0.573089
9.61, 0.543899
9.62, 0.513467
9.63, 0.481856
9.64, 0.449135
9.65, 0.415374
9.66, 0.380648
9.67, 0.345035
9.68, 0.308616
9.69, 0.271474
9.7, 0.233696
9.71, 0.19537
9.72, 0.156588
9.73, 0.117442
9.74, 0.0780256
9.75, 0.038434
9.76, -0.00123709
9.77, -0.0408916
9.78, -0.0804337
9.79, -0.119768
9.8, -0.158799
9.81, -0.197435
9.82, -0.235583
9.83, -0.273153
9.84, -0.310057
9.85, -0.346211
9.86, -0.381531
9.87, -0.415938
9.88, -0.449355
9.89, -0.48171
9.9, -0.512933
9.91, -0.542957
9.92, -0.571721
9.93, -0.599166
9.94, -0.625237
9.95, -0.649882
9.96, -0.673055
9.97, -0.694711
9.98, -0.71481
9.99, -0.733316
10, -0.750196
